frame,axis_0_2,axis_1_3,tenzo_0,tenzo_1,tenzo_2,tenzo_3,mean_tenzo_0_2,mean_tenzo_1_3,correct_force_X(N),correct_force_Y(N)
1,0.24,0.24,-860.2333333333333,371.0,341.7,-1274.5333333333333,-259.26666666666665,-451.76666666666665,-0.00591658025101549,-0.008841700101118831
2,0.5,0.5,34247.862068965514,277.2758620689655,38200.206896551725,-1767.6206896551723,36224.03448275862,-745.1724137931034,0.8266485228829793,-0.014584057418399127
3,0.74,0.74,56471.96666666667,348.5,62100.26666666667,-1273.2333333333333,59286.11666666667,-462.3666666666667,1.3529354603859616,-0.009049156799425907
4,1.0,1.0,72981.0,254.3448275862069,79918.1,-1702.4444444444443,76449.55,-724.0498084291187,1.744612616594322,-0.014170658742129732
5,1.24,1.24,88215.96666666666,324.0689655172414,96140.29629629629,-1979.7333333333333,92178.13148148148,-827.832183908046,2.103545817557891,-0.016201823738292317
6,1.5,1.5,100526.75862068965,437.0344827586207,109512.13793103448,-1535.8620689655172,105019.44827586206,-549.4137931034483,2.396590358607,-0.010752789766189416
7,1.74,1.74,112122.06666666667,336.7037037037037,121773.33333333333,-1513.4074074074074,116947.7,-588.3518518518518,2.6687983500450665,-0.011514861568682882
8,2.0,2.0,123029.55172413793,331.7142857142857,133504.75862068965,-1754.2413793103449,128267.1551724138,-711.2635467980296,2.9271133343290416,-0.013920413872160281
9,2.24,2.24,133214.89655172414,340.64285714285717,144731.56666666668,-1223.7,138973.2316091954,-441.52857142857147,3.171430743991131,-0.008641326380831225
10,2.5,2.5,141598.06666666668,425.0,153610.43333333332,-1495.0,147604.25,-535.0,3.3683944092926965,-0.010470691848517467
11,2.74,2.74,151415.55172413794,442.44444444444446,164276.1724137931,-1498.0689655172414,157845.8620689655,-527.8122605363985,3.6021125362114543,-0.010330017820459898
12,3.0,3.0,161530.96666666667,312.58620689655174,175010.6,-1131.2,168270.78333333333,-409.30689655172415,3.8400138602194898,-0.008010703523861908
13,3.24,3.24,172826.16666666666,351.96666666666664,187253.36666666667,-1580.7666666666667,180039.76666666666,-614.4,4.108587276385074,-0.012024659947157255
14,3.5,3.5,181863.8620689655,356.07142857142856,197025.5172413793,-1911.4827586206898,189444.6896551724,-777.7056650246307,4.323211787632624,-0.015220778256671508
15,3.74,3.74,191061.06896551725,405.0,206885.43333333332,-1657.3,198973.25114942528,-626.15,4.540657784383009,-0.012254623740091985
16,4.0,4.0,201368.22222222222,393.3,217655.43333333332,-1844.0666666666666,209511.82777777777,-725.3833333333333,4.781152774173921,-0.014196757673614509
17,4.24,4.24,211185.0357142857,345.37931034482756,228643.62068965516,-1579.8620689655172,219914.32820197043,-617.2413793103449,5.0185424446713185,-0.012080269680210292
18,4.5,4.5,219477.5,421.3666666666667,237522.16666666666,-1849.5666666666666,228499.8333333333,-714.0999999999999,5.21446747721907,-0.013975927194441724
19,4.74,4.74,227169.23333333334,328.7931034482759,245723.8,-1077.1,236446.51666666666,-374.15344827586205,5.395814313183614,-0.00732270179618088
20,5.0,5.0,233167.9655172414,324.57142857142856,252384.75862068965,-1484.3793103448277,242776.3620689655,-579.9039408866995,5.54026419091268,-0.011349524236944897
21,4.76,4.76,208593.5,335.03333333333336,225715.56666666668,-1940.2758620689656,217154.53333333333,-802.6212643678161,4.955562702514084,-0.015708411084603507
22,4.5,4.5,126481.9,407.7241379310345,137152.43333333332,-1826.2413793103449,131817.16666666666,-709.2586206896552,3.008126170139434,-0.013881174688123206
23,4.26,4.26,75236.55172413793,448.92857142857144,82023.79310344828,-1399.5172413793102,78630.1724137931,-475.2943349753694,1.7943753866188914,-0.009302169194155385
24,4.0,4.0,41083.1,360.44827586206895,45218.6,-1592.5333333333333,43150.85,-616.0425287356322,0.9847215232368157,-0.012056806512097704
25,3.76,3.76,13766.1,518.4,15745.366666666667,-1979.4333333333334,14755.733333333334,-730.5166666666667,0.33673237501639613,-0.014297224124995922
26,3.5,3.5,-5677.9,386.73333333333335,-5100.933333333333,-1863.6666666666667,-5389.416666666666,-738.4666666666667,-0.12298887714512881,-0.01445281664872623
27,3.26,3.26,-21073.2,487.6896551724138,-22566.73076923077,-1800.0333333333333,-21819.965384615385,-656.1718390804598,-0.4979412815857174,-0.012842192760161656
28,3.0,3.0,-31923.8,402.5,-33304.833333333336,-1717.0,-32614.316666666666,-657.25,-0.7442731623439136,-0.01286329386437029
29,2.76,2.76,-39776.55172413793,270.18518518518516,-41837.03448275862,-1632.103448275862,-40806.793103448275,-680.9591315453384,-0.9312291058747898,-0.013327314444570672
30,2.5,2.5,-44285.0,209.5,-46840.642857142855,-1780.2333333333333,-45562.82142857143,-785.3666666666667,-1.0397637803220536,-0.015370714681801873
31,2.26,2.26,-47269.275862068964,680.1071428571429,-49647.2962962963,-1398.3793103448277,-48458.28607918263,-359.1360837438424,-1.1058395670383805,-0.007028791148719882
32,2.0,2.0,-47244.96551724138,802.4333333333333,-49501.206896551725,-2214.2,-48373.08620689655,-705.8833333333332,-1.103895268188714,-0.01381511563427602
33,1.76,1.76,-47008.433333333334,378.46666666666664,-49432.25,-2024.6,-48220.34166666667,-823.0666666666666,-1.1004095700779868,-0.01610855595785628
34,1.5,1.5,-47016.4,769.1785714285714,-49413.769230769234,-1861.3666666666666,-48215.08461538462,-546.0940476190476,-1.1002896018375885,-0.010687817743791909
35,1.26,1.26,-46970.36666666667,519.9310344827586,-49237.3,-1834.1666666666667,-48103.833333333336,-657.1178160919541,-1.0977507982700205,-0.012860706841999296
36,1.0,1.0,-46734.708333333336,216.26666666666668,-49211.22222222222,-1825.5333333333333,-47972.96527777778,-804.6333333333333,-1.0947643312361217,-0.015747790064259387
37,0.76,0.76,-46797.8,549.1724137931035,-49182.166666666664,-1954.9655172413793,-47989.98333333334,-702.8965517241379,-1.095152690807004,-0.013756660176614892
38,0.5,0.5,-46693.75,266.18518518518516,-49206.51851851852,-2117.0,-47950.134259259255,-925.4074074074074,-1.0942433172738797,-0.018111506163174623
39,0.26,0.26,-46732.5,408.42857142857144,-49204.68965517241,-2035.8,-47968.5948275862,-813.6857142857143,-1.0946645956255863,-0.01592495771182531
40,0.0,0.0,-46679.375,410.93333333333334,-49201.275862068964,-2028.9,-47940.32543103448,-808.9833333333333,-1.094019475466113,-0.015832925596111817
41,1.0,1.0,-46680.933333333334,445.03333333333336,-49092.620689655174,-1926.6666666666667,-47886.777011494254,-740.8166666666667,-1.0927974767973365,-0.014498809407313176
42,2.0,2.0,-46314.0,485.2758620689655,-48778.67857142857,-2064.7,-47546.33928571429,-789.7120689655171,-1.0850285369989938,-0.015455760230267485
43,3.0,3.0,1926.0689655172414,394.0740740740741,3364.896551724138,-1382.1379310344828,2645.4827586206898,-494.03192848020433,0.060371089138816475,-0.009668889881205681
44,4.0,4.0,99272.1,348.22222222222223,108222.5,-1359.7666666666667,103747.3,-505.77222222222224,2.367559371083232,-0.009898663709212687
45,5.0,5.0,209915.66666666666,321.03333333333336,227394.1,-1963.7333333333333,218654.88333333333,-821.35,4.989801354531098,-0.016074958410803405
46,6.0,6.0,277856.06666666665,399.2758620689655,300481.0,-1572.2333333333333,289168.5333333333,-586.4787356321839,6.598954102089667,-0.011478202086939698
47,7.0,7.0,319945.2068965517,397.18518518518516,345965.8275862069,-2220.2758620689656,332955.5172413793,-911.5453384418902,7.598192483068883,-0.01784020625192074
48,8.0,8.0,352954.26666666666,207.53333333333333,381455.73333333334,-2165.5,367205.0,-978.9833333333333,8.379780860404255,-0.019160061323678115
49,9.0,9.0,380903.06666666665,369.0689655172414,411581.4666666667,-2151.4333333333334,396242.26666666666,-891.182183908046,9.042424156252045,-0.01744167108147658
50,10.0,10.0,403843.9666666667,346.48275862068965,436256.9,-1269.3,420050.43333333335,-461.40862068965515,9.585737072347,-0.00903040651119787
51,11.0,11.0,423732.5517241379,377.48275862068965,457450.8275862069,-1614.1379310344828,440591.6896551724,-618.3275862068965,10.054497646343554,-0.012101528255345856
52,12.0,12.0,432653.6,213.56666666666666,467220.6,-1706.7666666666667,449937.1,-746.6,10.267764052683908,-0.014611997260005873
53,13.0,13.0,446219.0,400.0,481814.4666666667,-2122.766666666667,464016.73333333334,-861.3833333333334,10.589067526024895,-0.01685846625566755
54,14.0,14.0,461363.3103448276,328.8965517241379,498213.2413793103,-2408.862068965517,479788.275862069,-1039.9827586206898,10.948981117128913,-0.020353904660352085
55,15.0,15.0,475105.9,263.7586206896552,512937.3333333333,-1991.357142857143,494021.6166666667,-863.7992610837439,11.273792263093643,-0.016905749311747605
56,16.0,16.0,486217.73333333334,293.6666666666667,524977.6333333333,-2106.1666666666665,505597.68333333335,-906.2499999999999,11.537963235417267,-0.017736569135923277
57,17.0,17.0,496070.2068965517,303.17857142857144,535511.2413793104,-1269.0,515790.724137931,-482.9107142857143,11.770572944554363,-0.00945123229837977
58,18.0,18.0,499067.9666666667,346.2142857142857,538556.4137931034,-2298.0333333333333,518812.19022988505,-975.9095238095238,11.83952414001117,-0.01909990260905223
59,19.0,19.0,506245.6551724138,347.0,546265.0344827586,-2435.448275862069,526255.3448275862,-1044.2241379310344,12.009380227043879,-0.020436914334690956
60,20.0,20.0,514958.06666666665,356.77777777777777,555791.6,-1860.0333333333333,535374.8333333333,-751.6277777777777,12.217490996878539,-0.014710397842798272
61,19.0,19.0,417113.9666666667,381.48275862068965,449597.86666666664,-1980.6,433355.9166666666,-799.5586206896551,9.889374099552768,-0.01564847090105989
62,18.0,18.0,164496.62962962964,348.2758620689655,169456.26666666666,-1527.0666666666666,166976.44814814813,-589.3954022988505,3.810476557590815,-0.011535285297951864
63,17.0,17.0,41551.03448275862,376.39285714285717,45547.34482758621,-1547.7857142857142,43549.18965517242,-585.6964285714286,0.9938118107284182,-0.011462891252988132
64,16.0,16.0,-4971.111111111111,377.53333333333336,-8393.733333333334,-1780.8,-6682.422222222222,-701.6333333333333,-0.152495837036309,-0.013731937241086864
65,15.0,15.0,-33440.25925925926,323.8666666666667,-35434.3,-1723.0333333333333,-34437.27962962963,-699.5833333333333,-0.7858739851711161,-0.01369181589848974
66,14.0,14.0,-45185.5,342.44444444444446,-47701.933333333334,-1209.1666666666667,-46443.71666666667,-433.36111111111114,-1.0598662001044958,-0.008481477857150624
67,13.0,13.0,-46647.44827586207,391.0,-49139.24137931035,-1844.2666666666667,-47893.34482758621,-726.6333333333333,-1.0929473572716821,-0.014221221906905437
68,12.0,12.0,-46537.793103448275,353.2413793103448,-49166.17857142857,-1446.8275862068965,-47851.98583743842,-546.7931034482758,-1.092003526784499,-0.010701499235703607
69,11.0,11.0,-46579.26666666667,365.43333333333334,-49136.3,-1965.0333333333333,-47857.78333333334,-799.8,-1.0921358282105103,-0.015653195028867795
70,10.0,10.0,-46624.666666666664,266.25,-49117.25,-1718.8275862068965,-47870.95833333333,-726.2887931034483,-1.0924364875502135,-0.014214478776855822
71,9.0,9.0,-46629.25925925926,310.53333333333336,-49042.36666666667,-1873.7,-47835.81296296297,-781.5833333333334,-1.091634454620484,-0.015296669602374663
72,8.0,8.0,-46529.11111111111,340.4,-49144.793103448275,-1828.344827586207,-47836.95210727969,-743.9724137931034,-1.0916604503987073,-0.014560571754439837
73,7.0,7.0,-46531.32142857143,346.13793103448273,-49014.58620689655,-1934.9310344827586,-47772.953817733985,-794.3965517241379,-1.0901999810645921,-0.015547442053510871
74,6.0,6.0,-46591.10344827586,265.7857142857143,-49011.730769230766,-1612.103448275862,-47801.41710875332,-673.1588669950739,-1.090849525981758,-0.013174652451219767
75,5.0,5.0,-46506.65517241379,305.25,-49054.333333333336,-1645.1333333333334,-47780.49425287356,-669.9416666666667,-1.0903720571367093,-0.01311168737971752
76,4.0,4.0,-46561.88,318.1666666666667,-49007.333333333336,-2126.1724137931033,-47784.60666666667,-904.0028735632183,-1.0904659042422593,-0.017692589755616366
77,3.0,3.0,-46501.67857142857,277.1111111111111,-49039.03448275862,-1889.551724137931,-47770.356527093594,-806.2203065134099,-1.0901407097409521,-0.01577884932994246
78,2.0,2.0,-46522.692307692305,398.2758620689655,-49015.28571428572,-2011.2,-47768.98901098901,-806.4620689655172,-1.090109502417306,-0.01578358095636593
79,1.0,1.0,-46598.47826086957,381.0740740740741,-49038.41379310345,-2319.2758620689656,-47818.44602698651,-969.1008939974457,-1.0912381334437586,-0.01896664828256083
80,0.0,0.0,-46288.37037037037,415.3658536585366,-49065.275,-2031.3483146067415,-47676.82268518519,-807.9912304741024,-1.088006226010545,-0.01581350876747436
