frame,axis_0_2,axis_1_3,tenzo_0,tenzo_1,tenzo_2,tenzo_3,mean_tenzo_0_2,mean_tenzo_1_3,correct_force_X(N),correct_force_Y(N)
1,0.24,0.24,0.07382728153279661,-224.17857142857142,0.11792296404988996,1372.1724137931035,0.09587512279134328,573.9969211822661,0.09587512279134328,0.0112339156704622
2,0.5,0.5,0.6717380031608707,-285.7142857142857,0.7196028368794327,969.8,0.6956704200201518,342.0428571428571,0.6956704200201518,0.006694253002110913
3,0.74,0.74,1.0133820982442259,-223.43333333333334,1.0619929078014183,64.0,1.037687503022822,-79.71666666666667,1.037687503022822,-0.001560165704406824
4,1.0,1.0,1.2711770717993518,-6.6,1.3310404255319148,679.7333333333333,1.3011087486656332,336.56666666666666,1.3011087486656332,0.0065870763610268454
5,1.24,1.24,1.5171282478572385,-233.20689655172413,1.5656316947909026,890.8,1.5413799713240706,328.7965517241379,1.5413799713240706,0.006435004437305761
6,1.5,1.5,1.7525195198366956,-346.8965517241379,1.803463829787234,267.57142857142856,1.7779916748119649,-39.662561576354676,1.7779916748119649,-0.0007762513274558112
7,1.74,1.74,1.9888173667119045,-110.34615384615384,2.0437787234042553,185.07407407407408,2.01629804505808,37.36396011396012,2.01629804505808,0.0007312645095206991
8,2.0,2.0,2.2304134938927516,-211.9655172413793,2.267150354609929,834.4666666666667,2.2487819242513405,311.2505747126437,2.2487819242513405,0.006091605337364589
9,2.24,2.24,2.4575823211843457,-291.4,2.511289801907557,345.8965517241379,2.484436061545951,27.248275862068965,2.484436061545951,0.0005332865419721884
10,2.5,2.5,2.692349047470039,-151.16666666666666,2.746425531914894,523.1666666666666,2.7193872896924667,186.0,2.7193872896924667,0.003640277913690185
11,2.74,2.74,2.922591345464012,-207.0,2.9805482269503547,462.18518518518516,2.951569786207183,127.59259259259258,2.951569786207183,0.002497163961103681
12,3.0,3.0,3.1246112865367923,-260.14814814814815,3.1804277329420394,841.2758620689655,3.152519509739416,290.56385696040866,3.152519509739416,0.005686737586073171
13,3.24,3.24,3.3277835288412834,-114.33333333333333,3.386068794326241,738.5925925925926,3.356926161583762,312.1296296296296,3.356926161583762,0.006108809661016334
14,3.5,3.5,3.531737436902774,-282.8333333333333,3.5854021276595742,782.3,3.5585697822811744,249.73333333333332,3.5585697822811744,0.004887627621750334
15,3.74,3.74,3.7326242249318513,-231.44444444444446,3.793971386647102,742.4137931034483,3.7632978057894766,255.4846743295019,3.7632978057894766,0.005000189340043094
16,4.0,4.0,3.9250150668637884,-225.96666666666667,3.984001418439717,693.0,3.9545082426517526,233.51666666666665,3.9545082426517526,0.004570244968522686
17,4.24,4.24,4.096600851687803,-127.48275862068965,4.156728368794326,665.1851851851852,4.126664610241065,268.8512132822478,4.126664610241065,0.005261791041828902
18,4.5,4.5,4.258157786158335,-117.13793103448276,4.316886280264123,645.2758620689655,4.2875220332112285,264.06896551724134,4.2875220332112285,0.005168195821846391
19,4.74,4.74,4.4318586326148965,-137.24137931034483,4.49601560283688,281.0689655172414,4.463937117725888,71.91379310344828,4.463937117725888,0.0014074526490546685
20,5.0,5.0,4.579756023557852,-140.10344827586206,4.659565248226951,1045.2,4.6196606358924015,452.548275862069,4.6196606358924015,0.008856997276877757
21,4.76,4.76,4.00985483854495,-203.07407407407408,4.063997065297139,272.51724137931035,4.036925951921044,34.721583652618136,4.036925951921044,0.000679549538166516
22,4.5,4.5,1.9476845145245383,-209.56666666666666,1.9961836879432624,400.1333333333333,1.9719341012339004,95.28333333333333,1.9719341012339004,0.0018648269563231888
23,4.26,4.26,0.8637279135124138,-228.03571428571428,0.9082468085106382,737.6333333333333,0.8859873610115261,254.79880952380952,0.8859873610115261,0.004986766014753097
24,4.0,4.0,0.28002887210157784,-253.17241379310346,0.32352531181217903,670.8275862068965,0.3017770919568784,208.8275862068965,0.3017770919568784,0.004087045429237626
25,3.76,3.76,-0.11153491634162332,-132.4,-0.06846595744680851,238.76666666666668,-0.09000043689421591,53.18333333333334,-0.09000043689421591,0.0010408715790847115
26,3.5,3.5,-0.3752019240951408,-99.5,-0.33042340425531913,434.0357142857143,-0.35281266417522994,167.26785714285714,-0.35281266417522994,0.003273663903373268
27,3.26,3.26,-0.5441857324729464,-269.7142857142857,-0.5043727072633896,172.24137931034483,-0.5242792198681681,-48.73645320197045,-0.5242792198681681,-0.0009538399687243458
28,3.0,3.0,-0.6586200517043572,-194.3793103448276,-0.6185716312056737,474.15384615384613,-0.6385958414550155,139.88726790450926,-0.6385958414550155,0.0027377878051572414
29,2.76,2.76,-0.6849784243294457,-174.0,-0.6462950354609929,732.7,-0.6656367298952193,279.35,-0.6656367298952193,0.005467266855856738
30,2.5,2.5,-0.683804926921232,-238.89655172413794,-0.6441312056737589,331.1333333333333,-0.6639680662974954,46.118390804597695,-0.6639680662974954,0.0009026008573167178
31,2.26,2.26,-0.6838221885385555,-224.07407407407408,-0.643540719002201,931.3333333333334,-0.6636814537703782,353.6296296296297,-0.6636814537703782,0.006921022206275168
32,2.0,2.0,-0.6845228023764565,-287.44827586206895,-0.6429485815602837,981.0,-0.6637356919683701,346.7758620689655,-0.6637356919683701,0.006786884471454458
33,1.76,1.76,-0.683744429991215,-236.4,-0.6440645896656535,602.6,-0.6639045098284342,183.10000000000002,-0.6639045098284342,0.003583520892455231
34,1.5,1.5,-0.6832519397614695,-204.25,-0.642975788701394,300.2173913043478,-0.6631138642314318,47.98369565217391,-0.6631138642314318,0.0009391074596765615
35,1.26,1.26,-0.6822486271706902,-202.7826086956522,-0.6424795417348609,353.58620689655174,-0.6623640844527756,75.40179910044978,-0.6623640844527756,0.0014757177629993107
36,1.0,1.0,-0.6831497461443798,-185.57692307692307,-0.6419361702127659,618.7931034482758,-0.6625429581785729,216.60809018567636,-0.6625429581785729,0.0042393206808039215
37,0.76,0.76,-0.6864782782886811,-249.73333333333332,-0.6421254585473221,824.7307692307693,-0.6643018684180015,287.49871794871797,-0.6643018684180015,0.005626748565392269
38,0.5,0.5,-0.6828248506487526,-203.9655172413793,-0.6426551724137931,591.4666666666667,-0.6627400115312729,193.7505747126437,-0.6627400115312729,0.003791967408017295
39,0.26,0.26,-0.6834613212627672,-179.68965517241378,-0.6418548632218846,189.3448275862069,-0.6626580922423259,4.827586206896555,-0.6626580922423259,9.448255615806938e-05
40,0.0,0.0,-0.6842678429416232,-183.86206896551724,-0.6416474164133739,669.5,-0.6629576296774986,242.8189655172414,-0.6629576296774986,0.004752303855900605
41,1.24,1.24,-0.6831603956845591,-152.33333333333334,-0.6415405831363279,455.93333333333334,-0.6623504894104435,151.8,-0.6623504894104435,0.002970936490850377
42,2.5,2.5,-0.6777223102905632,-189.3,-0.6385759354365371,584.9666666666667,-0.6581491228635501,197.83333333333334,-0.6581491228635501,0.0038718726555109764
43,3.74,3.74,0.37671830320293026,-168.6206896551724,0.42482611885546584,412.7931034482759,0.400772211029198,122.08620689655173,0.400772211029198,0.0023893963576974604
44,5.0,5.0,3.030357085263622,-164.23333333333332,3.0926000000000005,652.4642857142857,3.061478542631811,244.11547619047616,3.061478542631811,0.00477767836755996
45,6.24,6.24,5.686583653127082,-212.48275862068965,5.758948936170213,154.76666666666668,5.722766294648647,-28.858045977011486,5.722766294648647,-0.0005647919752815634
46,7.5,7.5,6.774963092112912,-151.13793103448276,6.8480630961115185,414.6896551724138,6.811513094112215,131.77586206896552,6.811513094112215,0.002579036345414728
47,8.74,8.74,7.4008796912161205,-147.63333333333333,7.480804255319149,752.9333333333333,7.440841973267634,302.65,7.440841973267634,0.005923280164399647
48,10.0,10.0,7.92039164569189,-264.1333333333333,7.999544680851064,738.3666666666667,7.959968163271476,237.11666666666667,7.959968163271476,0.004640701960400561
49,11.24,11.24,8.392177869467105,-179.6551724137931,8.476055759354365,767.8620689655172,8.434116814410736,294.10344827586204,8.434116814410736,0.005756012296229808
50,12.5,12.5,8.780126742318526,-244.78571428571428,8.865178014184396,339.9655172413793,8.822652378251462,47.58990147783251,8.822652378251462,0.0009314003616368042
51,13.74,13.74,9.140952941309036,-140.68965517241378,9.227246808510637,255.76666666666668,9.184099874909837,57.53850574712645,9.184099874909837,0.0011261083422473128
52,15.0,15.0,9.52252242482835,-175.15384615384616,9.612125458547322,642.4347826086956,9.567323941687835,233.64046822742472,9.567323941687835,0.004572667936734019
53,16.24,16.24,9.818330636676261,-133.48275862068965,9.903489361702128,373.16,9.860909999189195,119.83862068965519,9.860909999189195,0.0023454079790518677
54,17.5,17.5,10.091446637610888,-203.68965517241378,10.170128368794327,352.6,10.130787503202608,74.45517241379312,10.130787503202608,0.001457190966117881
55,18.74,18.74,10.314335147647638,-215.39285714285714,10.403909757887014,656.3571428571429,10.359122452767327,220.4821428571429,10.359122452767327,0.004315141263472803
56,20.0,20.0,10.498500032933334,-258.25,10.592335460992908,350.0,10.545417746963121,45.875,10.545417746963121,0.0008978373617770819
57,21.24,21.24,10.70383289906567,-227.41379310344828,10.797008804108584,403.62068965517244,10.750420851587126,88.10344827586208,10.750420851587126,0.0017243066498847652
58,22.5,22.5,10.963706178627895,-243.79166666666666,11.060275886524822,520.3,11.011991032576358,138.25416666666666,11.011991032576358,0.002705825749421013
59,23.74,23.74,11.048625612017245,-222.25,11.143089361702128,610.0333333333333,11.095857486859686,193.89166666666665,11.095857486859686,0.0037947287732002476
60,25.0,25.0,11.300409647749518,-200.46428571428572,11.398357300073366,569.9655172413793,11.349383473911441,184.7506157635468,11.349383473911441,0.003615825731745705
61,23.76,23.76,8.24284907277944,-213.13793103448276,8.302326241134752,526.1,8.272587656957096,156.48103448275862,8.272587656957096,0.0030625508265536474
62,22.5,22.5,1.5603234648145399,-167.10714285714286,1.6076418439716313,654.5384615384615,1.5839826543930857,243.71565934065933,1.5839826543930857,0.00476985339740991
63,21.26,21.26,-0.00524476738630863,-156.35714285714286,0.03963096111518709,757.3793103448276,0.01719309686443923,300.51108374384233,0.01719309686443923,0.005881418607375327
64,20.0,20.0,-0.5234697800152441,-196.55555555555554,-0.4813269503546099,852.2,-0.502398365184927,327.82222222222225,-0.502398365184927,0.006415935457916083
65,18.76,18.76,-0.680600702634332,-104.71428571428571,-0.6390395136778115,597.9,-0.6598201081560717,246.59285714285713,-0.6598201081560717,0.004826164148015601
66,17.5,17.5,-0.6843056147097467,-113.29629629629629,-0.6408495440729484,188.10714285714286,-0.6625775793913475,37.405423280423285,-0.6625775793913475,0.0007320760011825675
67,16.26,16.26,-0.6807322480629008,-50.67857142857143,-0.6394446808510639,529.0666666666667,-0.6600884644569823,239.19404761904764,-0.6600884644569823,0.0046813591862031045
68,15.0,15.0,-0.6832598088798285,-155.6551724137931,-0.6398371239911959,663.0,-0.6615484664355122,253.67241379310343,-0.6615484664355122,0.004964720888405978
69,13.76,13.76,-0.6819496006730462,-218.75862068965517,-0.6406747720364742,1002.3333333333334,-0.6613121863547602,391.78735632183907,-0.6613121863547602,0.0076678218283949325
70,12.5,12.5,-0.6819465654416792,-160.85185185185185,-0.6405973207249803,805.925925925926,-0.6612719430833298,322.53703703703707,-0.6612719430833298,0.006312497055231178
71,11.26,11.26,-0.681104457361284,-343.17241379310343,-0.6403147468818782,-134.2,-0.660709602121581,-238.6862068965517,-0.660709602121581,-0.0046714200390752855
72,10.0,10.0,-0.6831244600440528,-193.93333333333334,-0.6400858400586941,566.6206896551724,-0.6616051500513734,186.34367816091955,-0.6616051500513734,0.0036470041718547714
73,8.76,8.76,-0.682003867323884,-309.3448275862069,-0.6400378250591017,318.0740740740741,-0.6610208461914928,4.364623243933579,-0.6610208461914928,8.542172901328073e-05
74,7.5,7.5,-0.6820756639491583,-363.03333333333336,-0.6414314013206163,884.6666666666666,-0.6617535326348873,260.8166666666666,-0.6617535326348873,0.005104543823596567
75,6.26,6.26,-0.6817523743365739,-123.27586206896552,-0.6395347517730496,751.3666666666667,-0.6606435630548118,314.0454022988506,-0.6606435630548118,0.006146303988626101
76,5.0,5.0,-0.682018848914606,-204.60714285714286,-0.6400007598784194,648.7241379310345,-0.6610098043965127,222.05849753694582,-0.6610098043965127,0.00434599271038156
77,3.76,3.76,-0.6841505930780734,-188.16666666666666,-0.6402460992907801,740.6333333333333,-0.6621983461844267,276.23333333333335,-0.6621983461844267,0.005406269367518022
78,2.5,2.5,-0.683200711800952,-191.92307692307693,-0.6402839325018341,350.5,-0.6617423221513931,79.28846153846153,-0.6617423221513931,0.001551785136284598
79,1.26,1.26,-0.6838531404041011,-149.33333333333334,-0.6411489361702127,537.2413793103449,-0.6625010382871569,193.95402298850576,-0.6625010382871569,0.0037959491728839566
80,0.0,0.0,-0.6769168434312545,-121.91463414634147,-0.6403685410334347,833.1136363636364,-0.6586426922323445,355.5995011086475,-0.6586426922323445,0.006959575322607838
